                 g_value (photons/atom/s)
Velocity (km/s)         3969.59 A
    -50.0             2.351224e+00
    -49.9             2.350272e+00
    -49.8             2.348855e+00
    -49.7             2.346718e+00
    -49.6             2.344582e+00
    -49.5             2.342446e+00
    -49.4             2.340310e+00
    -49.3             2.338174e+00
    -49.2             2.336037e+00
    -49.1             2.333901e+00
    -49.0             2.331370e+00
    -48.9             2.328760e+00
    -48.8             2.326150e+00
    -48.7             2.323540e+00
    -48.6             2.320930e+00
    -48.5             2.318320e+00
    -48.4             2.315709e+00
    -48.3             2.312970e+00
    -48.2             2.309886e+00
    -48.1             2.306803e+00
    -48.0             2.303719e+00
    -47.9             2.300635e+00
    -47.8             2.297552e+00
    -47.7             2.294468e+00
    -47.6             2.291385e+00
    -47.5             2.287794e+00
    -47.4             2.283999e+00
    -47.3             2.280205e+00
    -47.2             2.276410e+00
    -47.1             2.272616e+00
    -47.0             2.268822e+00
    -46.9             2.265027e+00
    -46.8             2.261196e+00
    -46.7             2.257165e+00
    -46.6             2.253134e+00
    -46.5             2.249103e+00
    -46.4             2.245072e+00
    -46.3             2.241041e+00
    -46.2             2.237010e+00
    -46.1             2.232979e+00
    -46.0             2.229229e+00
    -45.9             2.225672e+00
    -45.8             2.222115e+00
    -45.7             2.218557e+00
    -45.6             2.215000e+00
    -45.5             2.211443e+00
    -45.4             2.207885e+00
    -45.3             2.204369e+00
    -45.2             2.201996e+00
    -45.1             2.199623e+00
    -45.0             2.197251e+00
    -44.9             2.194878e+00
    -44.8             2.192505e+00
    -44.7             2.190133e+00
    -44.6             2.187760e+00
    -44.5             2.185725e+00
    -44.4             2.184063e+00
    -44.3             2.182400e+00
    -44.2             2.180738e+00
    -44.1             2.179076e+00
    -44.0             2.177414e+00
    -43.9             2.175752e+00
    -43.8             2.174090e+00
    -43.7             2.172211e+00
    -43.6             2.170313e+00
    -43.5             2.168414e+00
    -43.4             2.166515e+00
    -43.3             2.164616e+00
    -43.2             2.162717e+00
    -43.1             2.160818e+00
    -43.0             2.158835e+00
    -42.9             2.156700e+00
    -42.8             2.154564e+00
    -42.7             2.152428e+00
    -42.6             2.150292e+00
    -42.5             2.148157e+00
    -42.4             2.146021e+00
    -42.3             2.143885e+00
    -42.2             2.141750e+00
    -42.1             2.139614e+00
    -42.0             2.137478e+00
    -41.9             2.135343e+00
    -41.8             2.133207e+00
    -41.7             2.131072e+00
    -41.6             2.128936e+00
    -41.5             2.126689e+00
    -41.4             2.124080e+00
    -41.3             2.121470e+00
    -41.2             2.118861e+00
    -41.1             2.116251e+00
    -41.0             2.113642e+00
    -40.9             2.111033e+00
    -40.8             2.108423e+00
    -40.7             2.105770e+00
    -40.6             2.103096e+00
    -40.5             2.100421e+00
    -40.4             2.097747e+00
    -40.3             2.095073e+00
    -40.2             2.092398e+00
    -40.1             2.089724e+00
    -40.0             2.087140e+00
    -39.9             2.084768e+00
    -39.8             2.082396e+00
    -39.7             2.080023e+00
    -39.6             2.077651e+00
    -39.5             2.075278e+00
    -39.4             2.072906e+00
    -39.3             2.070534e+00
    -39.2             2.068161e+00
    -39.1             2.065789e+00
    -39.0             2.063417e+00
    -38.9             2.061045e+00
    -38.8             2.058673e+00
    -38.7             2.056300e+00
    -38.6             2.053928e+00
    -38.5             2.051556e+00
    -38.4             2.049184e+00
    -38.3             2.046811e+00
    -38.2             2.044439e+00
    -38.1             2.042067e+00
    -38.0             2.039695e+00
    -37.9             2.037323e+00
    -37.8             2.034950e+00
    -37.7             2.032578e+00
    -37.6             2.030206e+00
    -37.5             2.027834e+00
    -37.4             2.025462e+00
    -37.3             2.023089e+00
    -37.2             2.020717e+00
    -37.1             2.018345e+00
    -37.0             2.015958e+00
    -36.9             2.013350e+00
    -36.8             2.010741e+00
    -36.7             2.008132e+00
    -36.6             2.005523e+00
    -36.5             2.002914e+00
    -36.4             2.000306e+00
    -36.3             1.997697e+00
    -36.2             1.995207e+00
    -36.1             1.992835e+00
    -36.0             1.990463e+00
    -35.9             1.988091e+00
    -35.8             1.985719e+00
    -35.7             1.983347e+00
    -35.6             1.980975e+00
    -35.5             1.978603e+00
    -35.4             1.975785e+00
    -35.3             1.972940e+00
    -35.2             1.970094e+00
    -35.1             1.967248e+00
    -35.0             1.964403e+00
    -34.9             1.961557e+00
    -34.8             1.958711e+00
    -34.7             1.955866e+00
    -34.6             1.953020e+00
    -34.5             1.950175e+00
    -34.4             1.947329e+00
    -34.3             1.944483e+00
    -34.2             1.941638e+00
    -34.1             1.938792e+00
    -34.0             1.935947e+00
    -33.9             1.933101e+00
    -33.8             1.930256e+00
    -33.7             1.927410e+00
    -33.6             1.924565e+00
    -33.5             1.921720e+00
    -33.4             1.918874e+00
    -33.3             1.916029e+00
    -33.2             1.913245e+00
    -33.1             1.910637e+00
    -33.0             1.908028e+00
    -32.9             1.905420e+00
    -32.8             1.902811e+00
    -32.7             1.900203e+00
    -32.6             1.897595e+00
    -32.5             1.894986e+00
    -32.4             1.892378e+00
    -32.3             1.889769e+00
    -32.2             1.887160e+00
    -32.1             1.884552e+00
    -32.0             1.881943e+00
    -31.9             1.879335e+00
    -31.8             1.876726e+00
    -31.7             1.874185e+00
    -31.6             1.872051e+00
    -31.5             1.869916e+00
    -31.4             1.867781e+00
    -31.3             1.865646e+00
    -31.2             1.863512e+00
    -31.1             1.861377e+00
    -31.0             1.859242e+00
    -30.9             1.856970e+00
    -30.8             1.854598e+00
    -30.7             1.852226e+00
    -30.6             1.849855e+00
    -30.5             1.847483e+00
    -30.4             1.845112e+00
    -30.3             1.842740e+00
    -30.2             1.840358e+00
    -30.1             1.837513e+00
    -30.0             1.834668e+00
    -29.9             1.831823e+00
    -29.8             1.828978e+00
    -29.7             1.826133e+00
    -29.6             1.823288e+00
    -29.5             1.820443e+00
    -29.4             1.817817e+00
    -29.3             1.815446e+00
    -29.2             1.813074e+00
    -29.1             1.810703e+00
    -29.0             1.808331e+00
    -28.9             1.805960e+00
    -28.8             1.803589e+00
    -28.7             1.801217e+00
    -28.6             1.799060e+00
    -28.5             1.796925e+00
    -28.4             1.794791e+00
    -28.3             1.792656e+00
    -28.2             1.790522e+00
    -28.1             1.788387e+00
    -28.0             1.786253e+00
    -27.9             1.783955e+00
    -27.8             1.781347e+00
    -27.7             1.778739e+00
    -27.6             1.776131e+00
    -27.5             1.773523e+00
    -27.4             1.770915e+00
    -27.3             1.768307e+00
    -27.2             1.765699e+00
    -27.1             1.763463e+00
    -27.0             1.761328e+00
    -26.9             1.759194e+00
    -26.8             1.757060e+00
    -26.7             1.754925e+00
    -26.6             1.752791e+00
    -26.5             1.750657e+00
    -26.4             1.748575e+00
    -26.3             1.746678e+00
    -26.2             1.744780e+00
    -26.1             1.742882e+00
    -26.0             1.740985e+00
    -25.9             1.739087e+00
    -25.8             1.737190e+00
    -25.7             1.735292e+00
    -25.6             1.733552e+00
    -25.5             1.731891e+00
    -25.4             1.730230e+00
    -25.3             1.728570e+00
    -25.2             1.726909e+00
    -25.1             1.725249e+00
    -25.0             1.723588e+00
    -24.9             1.721952e+00
    -24.8             1.720528e+00
    -24.7             1.719104e+00
    -24.6             1.717680e+00
    -24.5             1.716257e+00
    -24.4             1.714833e+00
    -24.3             1.713409e+00
    -24.2             1.711985e+00
    -24.1             1.710561e+00
    -24.0             1.709137e+00
    -23.9             1.707713e+00
    -23.8             1.706290e+00
    -23.7             1.704866e+00
    -23.6             1.703442e+00
    -23.5             1.702018e+00
    -23.4             1.700594e+00
    -23.3             1.699637e+00
    -23.2             1.698687e+00
    -23.1             1.697737e+00
    -23.0             1.696786e+00
    -22.9             1.695836e+00
    -22.8             1.694886e+00
    -22.7             1.693936e+00
    -22.6             1.693086e+00
    -22.5             1.692373e+00
    -22.4             1.691659e+00
    -22.3             1.690946e+00
    -22.2             1.690233e+00
    -22.1             1.689519e+00
    -22.0             1.688806e+00
    -21.9             1.688093e+00
    -21.8             1.687784e+00
    -21.7             1.687538e+00
    -21.6             1.687292e+00
    -21.5             1.687046e+00
    -21.4             1.686801e+00
    -21.3             1.686555e+00
    -21.2             1.686309e+00
    -21.1             1.686066e+00
    -21.0             1.685827e+00
    -20.9             1.685587e+00
    -20.8             1.685347e+00
    -20.7             1.685107e+00
    -20.6             1.684867e+00
    -20.5             1.684628e+00
    -20.4             1.684388e+00
    -20.3             1.684368e+00
    -20.2             1.684365e+00
    -20.1             1.684362e+00
    -20.0             1.684359e+00
    -19.9             1.684356e+00
    -19.8             1.684353e+00
    -19.7             1.684350e+00
    -19.6             1.684523e+00
    -19.5             1.684993e+00
    -19.4             1.685464e+00
    -19.3             1.685934e+00
    -19.2             1.686404e+00
    -19.1             1.686875e+00
    -19.0             1.687345e+00
    -18.9             1.687816e+00
    -18.8             1.688286e+00
    -18.7             1.688757e+00
    -18.6             1.689227e+00
    -18.5             1.689698e+00
    -18.4             1.690168e+00
    -18.3             1.690639e+00
    -18.2             1.691109e+00
    -18.1             1.691580e+00
    -18.0             1.692050e+00
    -17.9             1.692521e+00
    -17.8             1.692991e+00
    -17.7             1.693462e+00
    -17.6             1.693932e+00
    -17.5             1.694403e+00
    -17.4             1.694873e+00
    -17.3             1.695180e+00
    -17.2             1.695414e+00
    -17.1             1.695648e+00
    -17.0             1.695882e+00
    -16.9             1.696115e+00
    -16.8             1.696349e+00
    -16.7             1.696583e+00
    -16.6             1.696847e+00
    -16.5             1.697318e+00
    -16.4             1.697788e+00
    -16.3             1.698259e+00
    -16.2             1.698730e+00
    -16.1             1.699200e+00
    -16.0             1.699671e+00
    -15.9             1.700141e+00
    -15.8             1.700476e+00
    -15.7             1.700710e+00
    -15.6             1.700944e+00
    -15.5             1.701177e+00
    -15.4             1.701411e+00
    -15.3             1.701645e+00
    -15.2             1.701878e+00
    -15.1             1.702104e+00
    -15.0             1.701627e+00
    -14.9             1.701151e+00
    -14.8             1.700674e+00
    -14.7             1.700198e+00
    -14.6             1.699721e+00
    -14.5             1.699245e+00
    -14.4             1.698768e+00
    -14.3             1.697971e+00
    -14.2             1.696784e+00
    -14.1             1.695597e+00
    -14.0             1.694411e+00
    -13.9             1.693224e+00
    -13.8             1.692037e+00
    -13.7             1.690850e+00
    -13.6             1.689664e+00
    -13.5             1.687421e+00
    -13.4             1.685051e+00
    -13.3             1.682680e+00
    -13.2             1.680309e+00
    -13.1             1.677939e+00
    -13.0             1.675568e+00
    -12.9             1.673198e+00
    -12.8             1.670513e+00
    -12.7             1.667195e+00
    -12.6             1.663878e+00
    -12.5             1.660561e+00
    -12.4             1.657243e+00
    -12.3             1.653926e+00
    -12.2             1.650608e+00
    -12.1             1.647291e+00
    -12.0             1.643060e+00
    -11.9             1.638559e+00
    -11.8             1.634058e+00
    -11.7             1.629557e+00
    -11.6             1.625056e+00
    -11.5             1.620555e+00
    -11.4             1.616054e+00
    -11.3             1.611251e+00
    -11.2             1.605330e+00
    -11.1             1.599409e+00
    -11.0             1.593487e+00
    -10.9             1.587566e+00
    -10.8             1.581645e+00
    -10.7             1.575724e+00
    -10.6             1.569803e+00
    -10.5             1.563727e+00
    -10.4             1.557569e+00
    -10.3             1.551411e+00
    -10.2             1.545253e+00
    -10.1             1.539095e+00
    -10.0             1.532937e+00
     -9.9             1.526780e+00
     -9.8             1.520556e+00
     -9.7             1.513688e+00
     -9.6             1.506820e+00
     -9.5             1.499952e+00
     -9.4             1.493084e+00
     -9.3             1.486217e+00
     -9.2             1.479349e+00
     -9.1             1.472481e+00
     -9.0             1.465487e+00
     -8.9             1.458382e+00
     -8.8             1.451278e+00
     -8.7             1.444174e+00
     -8.6             1.437069e+00
     -8.5             1.429965e+00
     -8.4             1.422860e+00
     -8.3             1.415756e+00
     -8.2             1.408191e+00
     -8.1             1.400613e+00
     -8.0             1.393036e+00
     -7.9             1.385458e+00
     -7.8             1.377880e+00
     -7.7             1.370303e+00
     -7.6             1.362725e+00
     -7.5             1.355343e+00
     -7.4             1.348239e+00
     -7.3             1.341135e+00
     -7.2             1.334031e+00
     -7.1             1.326927e+00
     -7.0             1.319823e+00
     -6.9             1.312719e+00
     -6.8             1.305615e+00
     -6.7             1.298714e+00
     -6.6             1.291847e+00
     -6.5             1.284980e+00
     -6.4             1.278113e+00
     -6.3             1.271246e+00
     -6.2             1.264379e+00
     -6.1             1.257512e+00
     -6.0             1.250854e+00
     -5.9             1.244697e+00
     -5.8             1.238540e+00
     -5.7             1.232383e+00
     -5.6             1.226226e+00
     -5.5             1.220069e+00
     -5.4             1.213912e+00
     -5.3             1.207756e+00
     -5.2             1.202468e+00
     -5.1             1.197495e+00
     -5.0             1.192522e+00
     -4.9             1.187549e+00
     -4.8             1.182576e+00
     -4.7             1.177603e+00
     -4.6             1.172630e+00
     -4.5             1.167946e+00
     -4.4             1.164630e+00
     -4.3             1.161314e+00
     -4.2             1.157998e+00
     -4.1             1.154682e+00
     -4.0             1.151366e+00
     -3.9             1.148050e+00
     -3.8             1.144734e+00
     -3.7             1.142000e+00
     -3.6             1.139631e+00
     -3.5             1.137262e+00
     -3.4             1.134893e+00
     -3.3             1.132524e+00
     -3.2             1.130155e+00
     -3.1             1.127786e+00
     -3.0             1.125453e+00
     -2.9             1.123753e+00
     -2.8             1.122052e+00
     -2.7             1.120352e+00
     -2.6             1.118652e+00
     -2.5             1.116951e+00
     -2.4             1.115251e+00
     -2.3             1.113551e+00
     -2.2             1.112682e+00
     -2.1             1.112207e+00
     -2.0             1.111732e+00
     -1.9             1.111256e+00
     -1.8             1.110781e+00
     -1.7             1.110306e+00
     -1.6             1.109830e+00
     -1.5             1.109440e+00
     -1.4             1.109674e+00
     -1.3             1.109909e+00
     -1.2             1.110144e+00
     -1.1             1.110378e+00
     -1.0             1.110613e+00
     -0.9             1.110848e+00
     -0.8             1.111082e+00
     -0.7             1.111714e+00
     -0.6             1.112659e+00
     -0.5             1.113604e+00
     -0.4             1.114549e+00
     -0.3             1.115493e+00
     -0.2             1.116438e+00
     -0.1             1.117383e+00
      0.0             1.118328e+00
      0.1             1.120693e+00
      0.2             1.123057e+00
      0.3             1.125422e+00
      0.4             1.127787e+00
      0.5             1.130152e+00
      0.6             1.132517e+00
      0.7             1.134882e+00
      0.8             1.137559e+00
      0.9             1.140634e+00
      1.0             1.143709e+00
      1.1             1.146784e+00
      1.2             1.149859e+00
      1.3             1.152934e+00
      1.4             1.156009e+00
      1.5             1.159084e+00
      1.6             1.163200e+00
      1.7             1.167458e+00
      1.8             1.171716e+00
      1.9             1.175975e+00
      2.0             1.180233e+00
      2.1             1.184491e+00
      2.2             1.188749e+00
      2.3             1.193311e+00
      2.4             1.198515e+00
      2.5             1.203720e+00
      2.6             1.208925e+00
      2.7             1.214130e+00
      2.8             1.219335e+00
      2.9             1.224539e+00
      3.0             1.229744e+00
      3.1             1.235849e+00
      3.2             1.242237e+00
      3.3             1.248625e+00
      3.4             1.255013e+00
      3.5             1.261401e+00
      3.6             1.267789e+00
      3.7             1.274176e+00
      3.8             1.280850e+00
      3.9             1.288658e+00
      4.0             1.296465e+00
      4.1             1.304273e+00
      4.2             1.312081e+00
      4.3             1.319889e+00
      4.4             1.327697e+00
      4.5             1.335505e+00
      4.6             1.343616e+00
      4.7             1.351897e+00
      4.8             1.360178e+00
      4.9             1.368459e+00
      5.0             1.376739e+00
      5.1             1.385020e+00
      5.2             1.393301e+00
      5.3             1.401640e+00
      5.4             1.410631e+00
      5.5             1.419622e+00
      5.6             1.428612e+00
      5.7             1.437603e+00
      5.8             1.446594e+00
      5.9             1.455585e+00
      6.0             1.464576e+00
      6.1             1.473690e+00
      6.2             1.482917e+00
      6.3             1.492144e+00
      6.4             1.501371e+00
      6.5             1.510598e+00
      6.6             1.519825e+00
      6.7             1.529052e+00
      6.8             1.538279e+00
