                       g_value (photons/atom/s)
Velocity (km/s)      7667.01 A           7701.08 A
    -50.0          1.375558e+02        6.951435e+01
    -49.9          1.375545e+02        6.951697e+01
    -49.8          1.375533e+02        6.951958e+01
    -49.7          1.375520e+02        6.952213e+01
    -49.6          1.375507e+02        6.952467e+01
    -49.5          1.375495e+02        6.952722e+01
    -49.4          1.375482e+02        6.952955e+01
    -49.3          1.375470e+02        6.953158e+01
    -49.2          1.375457e+02        6.953360e+01
    -49.1          1.375445e+02        6.953563e+01
    -49.0          1.375433e+02        6.953759e+01
    -48.9          1.375421e+02        6.953947e+01
    -48.8          1.375408e+02        6.954135e+01
    -48.7          1.375396e+02        6.954322e+01
    -48.6          1.375383e+02        6.954489e+01
    -48.5          1.375370e+02        6.954642e+01
    -48.4          1.375357e+02        6.954795e+01
    -48.3          1.375344e+02        6.954948e+01
    -48.2          1.375331e+02        6.955100e+01
    -48.1          1.375318e+02        6.955253e+01
    -48.0          1.375302e+02        6.955405e+01
    -47.9          1.375287e+02        6.955557e+01
    -47.8          1.375272e+02        6.955666e+01
    -47.7          1.375257e+02        6.955766e+01
    -47.6          1.375244e+02        6.955867e+01
    -47.5          1.375230e+02        6.955967e+01
    -47.4          1.375217e+02        6.956066e+01
    -47.3          1.375204e+02        6.956165e+01
    -47.2          1.375191e+02        6.956264e+01
    -47.1          1.375177e+02        6.956362e+01
    -47.0          1.375164e+02        6.956433e+01
    -46.9          1.375150e+02        6.956503e+01
    -46.8          1.375135e+02        6.956574e+01
    -46.7          1.375119e+02        6.956644e+01
    -46.6          1.375104e+02        6.956702e+01
    -46.5          1.375089e+02        6.956761e+01
    -46.4          1.375073e+02        6.956820e+01
    -46.3          1.375058e+02        6.956872e+01
    -46.2          1.375042e+02        6.956906e+01
    -46.1          1.375026e+02        6.956940e+01
    -46.0          1.375010e+02        6.956974e+01
    -45.9          1.374993e+02        6.957007e+01
    -45.8          1.374977e+02        6.957036e+01
    -45.7          1.374961e+02        6.957065e+01
    -45.6          1.374944e+02        6.957094e+01
    -45.5          1.374928e+02        6.957123e+01
    -45.4          1.374912e+02        6.957152e+01
    -45.3          1.374896e+02        6.957180e+01
    -45.2          1.374880e+02        6.957208e+01
    -45.1          1.374864e+02        6.957224e+01
    -45.0          1.374849e+02        6.957232e+01
    -44.9          1.374831e+02        6.957241e+01
    -44.8          1.374814e+02        6.957250e+01
    -44.7          1.374797e+02        6.957260e+01
    -44.6          1.374779e+02        6.957270e+01
    -44.5          1.374760e+02        6.957281e+01
    -44.4          1.374741e+02        6.957292e+01
    -44.3          1.374722e+02        6.957292e+01
    -44.2          1.374703e+02        6.957289e+01
    -44.1          1.374685e+02        6.957287e+01
    -44.0          1.374667e+02        6.957284e+01
    -43.9          1.374649e+02        6.957280e+01
    -43.8          1.374631e+02        6.957276e+01
    -43.7          1.374612e+02        6.957272e+01
    -43.6          1.374593e+02        6.957268e+01
    -43.5          1.374574e+02        6.957265e+01
    -43.4          1.374555e+02        6.957263e+01
    -43.3          1.374537e+02        6.957260e+01
    -43.2          1.374519e+02        6.957257e+01
    -43.1          1.374501e+02        6.957255e+01
    -43.0          1.374483e+02        6.957252e+01
    -42.9          1.374464e+02        6.957250e+01
    -42.8          1.374445e+02        6.957243e+01
    -42.7          1.374426e+02        6.957223e+01
    -42.6          1.374407e+02        6.957203e+01
    -42.5          1.374385e+02        6.957183e+01
    -42.4          1.374363e+02        6.957167e+01
    -42.3          1.374342e+02        6.957162e+01
    -42.2          1.374320e+02        6.957156e+01
    -42.1          1.374300e+02        6.957151e+01
    -42.0          1.374279e+02        6.957139e+01
    -41.9          1.374259e+02        6.957121e+01
    -41.8          1.374238e+02        6.957103e+01
    -41.7          1.374218e+02        6.957084e+01
    -41.6          1.374197e+02        6.957065e+01
    -41.5          1.374177e+02        6.957045e+01
    -41.4          1.374154e+02        6.957025e+01
    -41.3          1.374129e+02        6.957004e+01
    -41.2          1.374104e+02        6.956983e+01
    -41.1          1.374079e+02        6.956962e+01
    -41.0          1.374056e+02        6.956941e+01
    -40.9          1.374034e+02        6.956920e+01
    -40.8          1.374012e+02        6.956901e+01
    -40.7          1.373990e+02        6.956884e+01
    -40.6          1.373967e+02        6.956866e+01
    -40.5          1.373943e+02        6.956849e+01
    -40.4          1.373920e+02        6.956827e+01
    -40.3          1.373896e+02        6.956805e+01
    -40.2          1.373870e+02        6.956783e+01
    -40.1          1.373843e+02        6.956761e+01
    -40.0          1.373815e+02        6.956736e+01
    -39.9          1.373788e+02        6.956711e+01
    -39.8          1.373763e+02        6.956686e+01
    -39.7          1.373738e+02        6.956660e+01
    -39.6          1.373713e+02        6.956628e+01
    -39.5          1.373687e+02        6.956595e+01
    -39.4          1.373662e+02        6.956563e+01
    -39.3          1.373637e+02        6.956531e+01
    -39.2          1.373612e+02        6.956497e+01
    -39.1          1.373586e+02        6.956464e+01
    -39.0          1.373559e+02        6.956430e+01
    -38.9          1.373531e+02        6.956397e+01
    -38.8          1.373504e+02        6.956364e+01
    -38.7          1.373476e+02        6.956331e+01
    -38.6          1.373445e+02        6.956299e+01
    -38.5          1.373414e+02        6.956266e+01
    -38.4          1.373383e+02        6.956232e+01
    -38.3          1.373352e+02        6.956199e+01
    -38.2          1.373322e+02        6.956165e+01
    -38.1          1.373292e+02        6.956126e+01
    -38.0          1.373262e+02        6.956082e+01
    -37.9          1.373232e+02        6.956039e+01
    -37.8          1.373200e+02        6.955995e+01
    -37.7          1.373169e+02        6.955950e+01
    -37.6          1.373138e+02        6.955905e+01
    -37.5          1.373108e+02        6.955859e+01
    -37.4          1.373078e+02        6.955814e+01
    -37.3          1.373048e+02        6.955770e+01
    -37.2          1.373019e+02        6.955726e+01
    -37.1          1.372986e+02        6.955682e+01
    -37.0          1.372951e+02        6.955638e+01
    -36.9          1.372917e+02        6.955579e+01
    -36.8          1.372882e+02        6.955514e+01
    -36.7          1.372848e+02        6.955449e+01
    -36.6          1.372814e+02        6.955384e+01
    -36.5          1.372779e+02        6.955316e+01
    -36.4          1.372745e+02        6.955248e+01
    -36.3          1.372709e+02        6.955180e+01
    -36.2          1.372671e+02        6.955112e+01
    -36.1          1.372634e+02        6.955036e+01
    -36.0          1.372597e+02        6.954960e+01
    -35.9          1.372561e+02        6.954884e+01
    -35.8          1.372526e+02        6.954805e+01
    -35.7          1.372490e+02        6.954708e+01
    -35.6          1.372455e+02        6.954612e+01
    -35.5          1.372414e+02        6.954515e+01
    -35.4          1.372373e+02        6.954412e+01
    -35.3          1.372332e+02        6.954297e+01
    -35.2          1.372291e+02        6.954181e+01
    -35.1          1.372252e+02        6.954065e+01
    -35.0          1.372213e+02        6.953945e+01
    -34.9          1.372174e+02        6.953818e+01
    -34.8          1.372134e+02        6.953691e+01
    -34.7          1.372091e+02        6.953564e+01
    -34.6          1.372047e+02        6.953417e+01
    -34.5          1.372004e+02        6.953253e+01
    -34.4          1.371960e+02        6.953089e+01
    -34.3          1.371918e+02        6.952924e+01
    -34.2          1.371875e+02        6.952743e+01
    -34.1          1.371832e+02        6.952545e+01
    -34.0          1.371788e+02        6.952348e+01
    -33.9          1.371742e+02        6.952151e+01
    -33.8          1.371696e+02        6.951928e+01
    -33.7          1.371650e+02        6.951696e+01
    -33.6          1.371603e+02        6.951464e+01
    -33.5          1.371556e+02        6.951232e+01
    -33.4          1.371508e+02        6.950952e+01
    -33.3          1.371461e+02        6.950655e+01
    -33.2          1.371411e+02        6.950358e+01
    -33.1          1.371358e+02        6.950061e+01
    -33.0          1.371305e+02        6.949706e+01
    -32.9          1.371252e+02        6.949347e+01
    -32.8          1.371200e+02        6.948987e+01
    -32.7          1.371148e+02        6.948628e+01
    -32.6          1.371097e+02        6.948155e+01
    -32.5          1.371045e+02        6.947675e+01
    -32.4          1.370992e+02        6.947195e+01
    -32.3          1.370936e+02        6.946703e+01
    -32.2          1.370880e+02        6.946139e+01
    -32.1          1.370824e+02        6.945574e+01
    -32.0          1.370769e+02        6.945009e+01
    -31.9          1.370713e+02        6.944413e+01
    -31.8          1.370658e+02        6.943644e+01
    -31.7          1.370603e+02        6.942875e+01
    -31.6          1.370542e+02        6.942106e+01
    -31.5          1.370481e+02        6.941288e+01
    -31.4          1.370419e+02        6.940380e+01
    -31.3          1.370357e+02        6.939473e+01
    -31.2          1.370294e+02        6.938565e+01
    -31.1          1.370232e+02        6.937569e+01
    -31.0          1.370169e+02        6.936415e+01
    -30.9          1.370107e+02        6.935261e+01
    -30.8          1.370039e+02        6.934107e+01
    -30.7          1.369971e+02        6.932849e+01
    -30.6          1.369902e+02        6.931509e+01
    -30.5          1.369834e+02        6.930168e+01
    -30.4          1.369764e+02        6.928828e+01
    -30.3          1.369694e+02        6.927354e+01
    -30.2          1.369625e+02        6.925778e+01
    -30.1          1.369555e+02        6.924202e+01
    -30.0          1.369481e+02        6.922626e+01
    -29.9          1.369407e+02        6.921025e+01
    -29.8          1.369333e+02        6.919418e+01
    -29.7          1.369259e+02        6.917810e+01
    -29.6          1.369185e+02        6.916202e+01
    -29.5          1.369112e+02        6.914554e+01
    -29.4          1.369038e+02        6.912894e+01
    -29.3          1.368961e+02        6.911235e+01
    -29.2          1.368875e+02        6.909576e+01
    -29.1          1.368789e+02        6.908184e+01
    -29.0          1.368703e+02        6.906800e+01
    -28.9          1.368616e+02        6.905415e+01
    -28.8          1.368529e+02        6.904031e+01
    -28.7          1.368441e+02        6.902953e+01
    -28.6          1.368354e+02        6.901881e+01
    -28.5          1.368266e+02        6.900808e+01
    -28.4          1.368178e+02        6.899833e+01
    -28.3          1.368090e+02        6.899304e+01
    -28.2          1.368002e+02        6.898774e+01
    -28.1          1.367909e+02        6.898245e+01
    -28.0          1.367811e+02        6.897820e+01
    -27.9          1.367714e+02        6.897854e+01
    -27.8          1.367617e+02        6.897887e+01
    -27.7          1.367520e+02        6.897921e+01
    -27.6          1.367423e+02        6.898139e+01
    -27.5          1.367327e+02        6.898653e+01
    -27.4          1.367230e+02        6.899167e+01
    -27.3          1.367124e+02        6.899681e+01
    -27.2          1.367015e+02        6.900379e+01
    -27.1          1.366907e+02        6.901364e+01
    -27.0          1.366798e+02        6.902348e+01
    -26.9          1.366687e+02        6.903332e+01
    -26.8          1.366575e+02        6.904414e+01
    -26.7          1.366464e+02        6.905564e+01
    -26.6          1.366352e+02        6.906713e+01
    -26.5          1.366233e+02        6.907863e+01
    -26.4          1.366115e+02        6.909089e+01
    -26.3          1.365996e+02        6.910366e+01
    -26.2          1.365876e+02        6.911643e+01
    -26.1          1.365754e+02        6.912920e+01
    -26.0          1.365632e+02        6.914108e+01
    -25.9          1.365510e+02        6.915274e+01
    -25.8          1.365386e+02        6.916439e+01
    -25.7          1.365247e+02        6.917604e+01
    -25.6          1.365109e+02        6.918517e+01
    -25.5          1.364970e+02        6.919429e+01
    -25.4          1.364832e+02        6.920341e+01
    -25.3          1.364695e+02        6.921252e+01
    -25.2          1.364559e+02        6.921938e+01
    -25.1          1.364422e+02        6.922625e+01
    -25.0          1.364281e+02        6.923312e+01
    -24.9          1.364132e+02        6.923941e+01
    -24.8          1.363982e+02        6.924341e+01
    -24.7          1.363832e+02        6.924742e+01
    -24.6          1.363680e+02        6.925143e+01
    -24.5          1.363524e+02        6.925489e+01
    -24.4          1.363368e+02        6.925631e+01
    -24.3          1.363212e+02        6.925773e+01
    -24.2          1.363049e+02        6.925914e+01
    -24.1          1.362878e+02        6.925976e+01
    -24.0          1.362707e+02        6.925923e+01
    -23.9          1.362536e+02        6.925869e+01
    -23.8          1.362365e+02        6.925815e+01
    -23.7          1.362193e+02        6.925688e+01
    -23.6          1.362022e+02        6.925456e+01
    -23.5          1.361851e+02        6.925225e+01
    -23.4          1.361666e+02        6.924994e+01
    -23.3          1.361474e+02        6.924682e+01
    -23.2          1.361282e+02        6.924319e+01
    -23.1          1.361090e+02        6.923957e+01
    -23.0          1.360897e+02        6.923595e+01
    -22.9          1.360704e+02        6.923152e+01
    -22.8          1.360511e+02        6.922661e+01
    -22.7          1.360318e+02        6.922170e+01
    -22.6          1.360106e+02        6.921679e+01
    -22.5          1.359890e+02        6.921162e+01
    -22.4          1.359673e+02        6.920639e+01
    -22.3          1.359457e+02        6.920117e+01
    -22.2          1.359241e+02        6.919595e+01
    -22.1          1.359025e+02        6.919017e+01
    -22.0          1.358810e+02        6.918428e+01
    -21.9          1.358594e+02        6.917838e+01
    -21.8          1.358351e+02        6.917250e+01
    -21.7          1.358108e+02        6.916688e+01
    -21.6          1.357865e+02        6.916126e+01
    -21.5          1.357622e+02        6.915564e+01
    -21.4          1.357379e+02        6.915001e+01
    -21.3          1.357135e+02        6.914415e+01
    -21.2          1.356891e+02        6.913829e+01
    -21.1          1.356643e+02        6.913243e+01
    -21.0          1.356373e+02        6.912670e+01
    -20.9          1.356104e+02        6.912139e+01
    -20.8          1.355834e+02        6.911608e+01
    -20.7          1.355564e+02        6.911077e+01
    -20.6          1.355293e+02        6.910555e+01
    -20.5          1.355023e+02        6.910060e+01
    -20.4          1.354752e+02        6.909564e+01
    -20.3          1.354471e+02        6.909069e+01
    -20.2          1.354167e+02        6.908608e+01
    -20.1          1.353864e+02        6.908192e+01
    -20.0          1.353561e+02        6.907776e+01
    -19.9          1.353258e+02        6.907360e+01
    -19.8          1.352957e+02        6.906970e+01
    -19.7          1.352656e+02        6.906613e+01
    -19.6          1.352355e+02        6.906255e+01
    -19.5          1.352038e+02        6.905898e+01
    -19.4          1.351705e+02        6.905590e+01
    -19.3          1.351372e+02        6.905310e+01
    -19.2          1.351039e+02        6.905030e+01
    -19.1          1.350693e+02        6.904749e+01
    -19.0          1.350340e+02        6.904508e+01
    -18.9          1.349987e+02        6.904287e+01
    -18.8          1.349634e+02        6.904066e+01
    -18.7          1.349281e+02        6.903845e+01
    -18.6          1.348928e+02        6.903673e+01
    -18.5          1.348575e+02        6.903509e+01
    -18.4          1.348222e+02        6.903346e+01
    -18.3          1.347840e+02        6.903182e+01
    -18.2          1.347453e+02        6.903043e+01
    -18.1          1.347067e+02        6.902909e+01
    -18.0          1.346681e+02        6.902774e+01
    -17.9          1.346294e+02        6.902641e+01
    -17.8          1.345908e+02        6.902532e+01
    -17.7          1.345521e+02        6.902423e+01
    -17.6          1.345133e+02        6.902315e+01
    -17.5          1.344706e+02        6.902206e+01
    -17.4          1.344279e+02        6.902093e+01
    -17.3          1.343852e+02        6.901981e+01
    -17.2          1.343425e+02        6.901868e+01
    -17.1          1.343000e+02        6.901751e+01
    -17.0          1.342574e+02        6.901619e+01
    -16.9          1.342149e+02        6.901488e+01
    -16.8          1.341716e+02        6.901356e+01
    -16.7          1.341254e+02        6.901207e+01
    -16.6          1.340793e+02        6.901012e+01
    -16.5          1.340331e+02        6.900816e+01
    -16.4          1.339868e+02        6.900621e+01
    -16.3          1.339404e+02        6.900390e+01
    -16.2          1.338940e+02        6.900120e+01
    -16.1          1.338476e+02        6.899849e+01
    -16.0          1.337994e+02        6.899579e+01
    -15.9          1.337485e+02        6.899234e+01
    -15.8          1.336976e+02        6.898852e+01
    -15.7          1.336467e+02        6.898470e+01
    -15.6          1.335962e+02        6.898089e+01
    -15.5          1.335460e+02        6.897603e+01
    -15.4          1.334958e+02        6.897068e+01
    -15.3          1.334456e+02        6.896534e+01
    -15.2          1.333924e+02        6.895999e+01
    -15.1          1.333368e+02        6.895344e+01
    -15.0          1.332812e+02        6.894672e+01
    -14.9          1.332256e+02        6.894000e+01
    -14.8          1.331700e+02        6.893328e+01
    -14.7          1.331144e+02        6.892447e+01
    -14.6          1.330588e+02        6.891540e+01
    -14.5          1.330032e+02        6.890633e+01
    -14.4          1.329436e+02        6.889710e+01
    -14.3          1.328826e+02        6.888624e+01
    -14.2          1.328215e+02        6.887537e+01
    -14.1          1.327605e+02        6.886451e+01
    -14.0          1.326991e+02        6.885336e+01
    -13.9          1.326376e+02        6.883945e+01
    -13.8          1.325761e+02        6.882555e+01
    -13.7          1.325146e+02        6.881164e+01
    -13.6          1.324469e+02        6.879707e+01
    -13.5          1.323784e+02        6.878088e+01
    -13.4          1.323100e+02        6.876470e+01
    -13.3          1.322414e+02        6.874851e+01
    -13.2          1.321715e+02        6.873104e+01
    -13.1          1.321016e+02        6.871057e+01
    -13.0          1.320317e+02        6.869010e+01
    -12.9          1.319613e+02        6.866962e+01
    -12.8          1.318830e+02        6.864787e+01
    -12.7          1.318047e+02        6.862482e+01
    -12.6          1.317264e+02        6.860177e+01
    -12.5          1.316474e+02        6.857872e+01
    -12.4          1.315660e+02        6.855290e+01
    -12.3          1.314846e+02        6.852438e+01
    -12.2          1.314032e+02        6.849585e+01
    -12.1          1.313190e+02        6.846733e+01
    -12.0          1.312257e+02        6.843607e+01
    -11.9          1.311324e+02        6.840364e+01
