                       g_value (photons/atom/s)
Velocity (km/s)      4045.28 A           4048.35 A
    -50.0          2.478404e-01        1.364641e-01
    -49.9          2.479345e-01        1.362903e-01
    -49.8          2.480286e-01        1.361165e-01
    -49.7          2.481340e-01        1.359428e-01
    -49.6          2.482730e-01        1.357690e-01
    -49.5          2.484121e-01        1.355906e-01
    -49.4          2.485511e-01        1.354063e-01
    -49.3          2.486902e-01        1.352221e-01
    -49.2          2.488292e-01        1.350379e-01
    -49.1          2.489683e-01        1.348536e-01
    -49.0          2.491074e-01        1.346694e-01
    -48.9          2.492502e-01        1.344851e-01
    -48.8          2.493937e-01        1.343005e-01
    -48.7          2.495373e-01        1.341038e-01
    -48.6          2.496809e-01        1.339070e-01
    -48.5          2.498244e-01        1.337102e-01
    -48.4          2.499680e-01        1.335134e-01
    -48.3          2.501115e-01        1.333166e-01
    -48.2          2.502366e-01        1.331198e-01
    -48.1          2.503352e-01        1.329230e-01
    -48.0          2.504338e-01        1.327172e-01
    -47.9          2.505324e-01        1.325058e-01
    -47.8          2.506310e-01        1.322943e-01
    -47.7          2.507296e-01        1.320829e-01
    -47.6          2.508283e-01        1.318715e-01
    -47.5          2.509269e-01        1.316600e-01
    -47.4          2.509316e-01        1.314486e-01
    -47.3          2.509358e-01        1.312308e-01
    -47.2          2.509400e-01        1.309880e-01
    -47.1          2.509442e-01        1.307452e-01
    -47.0          2.509484e-01        1.305024e-01
    -46.9          2.509526e-01        1.302596e-01
    -46.8          2.509568e-01        1.300168e-01
    -46.7          2.508963e-01        1.297740e-01
    -46.6          2.507882e-01        1.295312e-01
    -46.5          2.506800e-01        1.292652e-01
    -46.4          2.505719e-01        1.289931e-01
    -46.3          2.504637e-01        1.287210e-01
    -46.2          2.503555e-01        1.284489e-01
    -46.1          2.502474e-01        1.281768e-01
    -46.0          2.501215e-01        1.279047e-01
    -45.9          2.499010e-01        1.276327e-01
    -45.8          2.496805e-01        1.273598e-01
    -45.7          2.494599e-01        1.270856e-01
    -45.6          2.492394e-01        1.268114e-01
    -45.5          2.490189e-01        1.265372e-01
    -45.4          2.487984e-01        1.262631e-01
    -45.3          2.485779e-01        1.259889e-01
    -45.2          2.483175e-01        1.257147e-01
    -45.1          2.480430e-01        1.254405e-01
    -45.0          2.477685e-01        1.252249e-01
    -44.9          2.474940e-01        1.250114e-01
    -44.8          2.472195e-01        1.247979e-01
    -44.7          2.469450e-01        1.245844e-01
    -44.6          2.466706e-01        1.243709e-01
    -44.5          2.463865e-01        1.241574e-01
    -44.4          2.460821e-01        1.239439e-01
    -44.3          2.457778e-01        1.237916e-01
    -44.2          2.454734e-01        1.236890e-01
    -44.1          2.451691e-01        1.235863e-01
    -44.0          2.448647e-01        1.234837e-01
    -43.9          2.445604e-01        1.233811e-01
    -43.8          2.442514e-01        1.232785e-01
    -43.7          2.438915e-01        1.231758e-01
    -43.6          2.435317e-01        1.230922e-01
    -43.5          2.431718e-01        1.231255e-01
    -43.4          2.428119e-01        1.231588e-01
    -43.3          2.424521e-01        1.231922e-01
    -43.2          2.420922e-01        1.232255e-01
    -43.1          2.417323e-01        1.232588e-01
    -43.0          2.412649e-01        1.232921e-01
    -42.9          2.407432e-01        1.233255e-01
    -42.8          2.402216e-01        1.234257e-01
    -42.7          2.396999e-01        1.235511e-01
    -42.6          2.391782e-01        1.236764e-01
    -42.5          2.386566e-01        1.238018e-01
    -42.4          2.381349e-01        1.239272e-01
    -42.3          2.375223e-01        1.240526e-01
    -42.2          2.366321e-01        1.241779e-01
    -42.1          2.357419e-01        1.243118e-01
    -42.0          2.348517e-01        1.244644e-01
    -41.9          2.339615e-01        1.246170e-01
    -41.8          2.330713e-01        1.247695e-01
    -41.7          2.321810e-01        1.249221e-01
    -41.6          2.312908e-01        1.250746e-01
    -41.5          2.298831e-01        1.252272e-01
    -41.4          2.283681e-01        1.253797e-01
    -41.3          2.268531e-01        1.254946e-01
    -41.2          2.253381e-01        1.256053e-01
    -41.1          2.238231e-01        1.257161e-01
    -41.0          2.223081e-01        1.258268e-01
    -40.9          2.207931e-01        1.259375e-01
    -40.8          2.189391e-01        1.260482e-01
    -40.7          2.165971e-01        1.261590e-01
    -40.6          2.142552e-01        1.262217e-01
    -40.5          2.119132e-01        1.262341e-01
    -40.4          2.095713e-01        1.262465e-01
    -40.3          2.072293e-01        1.262589e-01
    -40.2          2.048874e-01        1.262713e-01
    -40.1          2.025454e-01        1.262837e-01
    -40.0          1.992230e-01        1.262961e-01
    -39.9          1.958922e-01        1.262991e-01
    -39.8          1.925614e-01        1.261881e-01
    -39.7          1.892307e-01        1.260771e-01
    -39.6          1.858999e-01        1.259661e-01
    -39.5          1.825691e-01        1.258551e-01
    -39.4          1.792384e-01        1.257441e-01
    -39.3          1.754103e-01        1.256331e-01
    -39.2          1.712122e-01        1.255221e-01
    -39.1          1.670140e-01        1.253154e-01
    -39.0          1.628158e-01        1.250601e-01
    -38.9          1.586177e-01        1.248049e-01
    -38.8          1.544195e-01        1.245496e-01
    -38.7          1.502213e-01        1.242943e-01
    -38.6          1.459828e-01        1.240390e-01
    -38.5          1.415240e-01        1.237838e-01
    -38.4          1.370653e-01        1.234716e-01
    -38.3          1.326065e-01        1.230845e-01
    -38.2          1.281477e-01        1.226974e-01
    -38.1          1.236890e-01        1.223103e-01
    -38.0          1.192302e-01        1.219232e-01
    -37.9          1.147715e-01        1.215361e-01
    -37.8          1.107133e-01        1.211490e-01
    -37.7          1.067984e-01        1.207599e-01
    -37.6          1.028836e-01        1.202640e-01
    -37.5          9.896871e-02        1.197682e-01
    -37.4          9.505384e-02        1.192723e-01
    -37.3          9.113898e-02        1.187764e-01
    -37.2          8.722411e-02        1.182806e-01
    -37.1          8.366971e-02        1.177847e-01
    -37.0          8.088754e-02        1.172888e-01
    -36.9          7.810536e-02        1.167714e-01
    -36.8          7.532319e-02        1.162400e-01
    -36.7          7.254102e-02        1.157086e-01
    -36.6          6.975884e-02        1.151772e-01
    -36.5          6.697667e-02        1.146458e-01
    -36.4          6.419449e-02        1.141144e-01
    -36.3          6.271062e-02        1.135830e-01
    -36.2          6.137120e-02        1.130637e-01
    -36.1          6.003178e-02        1.125950e-01
    -36.0          5.869236e-02        1.121264e-01
    -35.9          5.735294e-02        1.116577e-01
    -35.8          5.601352e-02        1.111891e-01
    -35.7          5.467410e-02        1.107204e-01
    -35.6          5.397532e-02        1.102518e-01
    -35.5          5.396627e-02        1.097831e-01
    -35.4          5.395722e-02        1.094369e-01
    -35.3          5.394817e-02        1.091251e-01
    -35.2          5.393912e-02        1.088134e-01
    -35.1          5.393007e-02        1.085016e-01
    -35.0          5.392102e-02        1.081898e-01
    -34.9          5.397728e-02        1.078780e-01
    -34.8          5.500194e-02        1.075662e-01
    -34.7          5.602660e-02        1.073391e-01
    -34.6          5.705126e-02        1.072574e-01
    -34.5          5.807592e-02        1.071757e-01
    -34.4          5.910058e-02        1.070940e-01
    -34.3          6.012524e-02        1.070124e-01
    -34.2          6.114990e-02        1.069307e-01
    -34.1          6.259189e-02        1.068490e-01
    -34.0          6.426371e-02        1.067673e-01
    -33.9          6.593552e-02        1.069373e-01
    -33.8          6.760734e-02        1.071192e-01
    -33.7          6.927916e-02        1.073010e-01
    -33.6          7.095098e-02        1.074829e-01
    -33.5          7.262280e-02        1.076647e-01
    -33.4          7.434347e-02        1.078466e-01
    -33.3          7.623100e-02        1.080284e-01
    -33.2          7.811852e-02        1.083305e-01
    -33.1          8.000605e-02        1.087341e-01
    -33.0          8.189358e-02        1.091376e-01
    -32.9          8.378110e-02        1.095412e-01
    -32.8          8.566863e-02        1.099448e-01
    -32.7          8.755615e-02        1.103483e-01
    -32.6          8.933105e-02        1.107519e-01
    -32.5          9.107921e-02        1.111744e-01
    -32.4          9.282737e-02        1.117244e-01
    -32.3          9.457553e-02        1.122743e-01
    -32.2          9.632369e-02        1.128242e-01
    -32.1          9.807185e-02        1.133742e-01
    -32.0          9.982001e-02        1.139241e-01
    -31.9          1.014158e-01        1.144741e-01
    -31.8          1.027729e-01        1.150240e-01
    -31.7          1.041300e-01        1.156220e-01
    -31.6          1.054872e-01        1.162388e-01
    -31.5          1.068443e-01        1.168557e-01
    -31.4          1.082015e-01        1.174726e-01
    -31.3          1.095586e-01        1.180895e-01
    -31.2          1.109158e-01        1.187064e-01
    -31.1          1.118450e-01        1.193232e-01
    -31.0          1.127617e-01        1.199369e-01
    -30.9          1.136784e-01        1.205433e-01
    -30.8          1.145951e-01        1.211497e-01
    -30.7          1.155118e-01        1.217561e-01
    -30.6          1.164285e-01        1.223625e-01
    -30.5          1.173452e-01        1.229689e-01
    -30.4          1.180332e-01        1.235753e-01
    -30.3          1.185364e-01        1.241817e-01
    -30.2          1.190396e-01        1.247247e-01
    -30.1          1.195428e-01        1.252600e-01
    -30.0          1.200460e-01        1.257953e-01
    -29.9          1.205492e-01        1.263306e-01
    -29.8          1.210524e-01        1.268659e-01
    -29.7          1.215047e-01        1.274012e-01
    -29.6          1.216304e-01        1.279365e-01
    -29.5          1.217561e-01        1.284167e-01
    -29.4          1.218818e-01        1.288369e-01
    -29.3          1.220075e-01        1.292572e-01
    -29.2          1.221332e-01        1.296774e-01
    -29.1          1.222589e-01        1.300976e-01
    -29.0          1.223846e-01        1.305179e-01
    -28.9          1.223268e-01        1.309381e-01
    -28.8          1.221963e-01        1.313509e-01
    -28.7          1.220659e-01        1.316582e-01
    -28.6          1.219354e-01        1.319655e-01
    -28.5          1.218049e-01        1.322728e-01
    -28.4          1.216745e-01        1.325801e-01
    -28.3          1.215440e-01        1.328874e-01
    -28.2          1.214189e-01        1.331947e-01
    -28.1          1.213064e-01        1.335020e-01
    -28.0          1.211939e-01        1.337410e-01
    -27.9          1.210815e-01        1.339437e-01
    -27.8          1.209690e-01        1.341464e-01
    -27.7          1.208565e-01        1.343491e-01
    -27.6          1.207440e-01        1.345519e-01
    -27.5          1.206315e-01        1.347546e-01
    -27.4          1.209223e-01        1.349573e-01
    -27.3          1.212682e-01        1.351419e-01
    -27.2          1.216141e-01        1.352693e-01
    -27.1          1.219600e-01        1.353968e-01
    -27.0          1.223059e-01        1.355242e-01
    -26.9          1.226518e-01        1.356516e-01
    -26.8          1.229977e-01        1.357790e-01
    -26.7          1.237272e-01        1.359065e-01
    -26.6          1.249044e-01        1.360339e-01
    -26.5          1.260817e-01        1.361111e-01
    -26.4          1.272590e-01        1.361779e-01
    -26.3          1.284363e-01        1.362446e-01
    -26.2          1.296135e-01        1.363114e-01
    -26.1          1.307908e-01        1.363782e-01
    -26.0          1.320126e-01        1.364449e-01
    -25.9          1.342234e-01        1.365117e-01
    -25.8          1.364343e-01        1.365646e-01
    -25.7          1.386452e-01        1.365979e-01
    -25.6          1.408560e-01        1.366312e-01
    -25.5          1.430669e-01        1.366645e-01
    -25.4          1.452777e-01        1.366979e-01
    -25.3          1.474886e-01        1.367312e-01
    -25.2          1.502751e-01        1.367645e-01
    -25.1          1.532004e-01        1.367977e-01
    -25.0          1.561258e-01        1.368018e-01
    -24.9          1.590511e-01        1.368058e-01
    -24.8          1.619765e-01        1.368098e-01
    -24.7          1.649019e-01        1.368139e-01
    -24.6          1.678272e-01        1.368179e-01
    -24.5          1.708483e-01        1.368219e-01
    -24.4          1.740207e-01        1.368259e-01
    -24.3          1.771932e-01        1.368164e-01
    -24.2          1.803657e-01        1.367974e-01
    -24.1          1.835381e-01        1.367784e-01
    -24.0          1.867106e-01        1.367595e-01
    -23.9          1.898830e-01        1.367405e-01
    -23.8          1.930555e-01        1.367215e-01
    -23.7          1.959928e-01        1.367025e-01
    -23.6          1.989225e-01        1.366806e-01
    -23.5          2.018522e-01        1.366449e-01
    -23.4          2.047820e-01        1.366092e-01
    -23.3          2.077117e-01        1.365735e-01
    -23.2          2.106414e-01        1.365378e-01
    -23.1          2.135712e-01        1.365021e-01
    -23.0          2.162089e-01        1.364664e-01
    -22.9          2.186084e-01        1.364307e-01
    -22.8          2.210078e-01        1.363902e-01
    -22.7          2.234073e-01        1.363482e-01
    -22.6          2.258067e-01        1.363062e-01
    -22.5          2.282062e-01        1.362642e-01
    -22.4          2.306056e-01        1.362222e-01
    -22.3          2.329118e-01        1.361803e-01
    -22.2          2.346056e-01        1.361383e-01
    -22.1          2.362995e-01        1.360948e-01
    -22.0          2.379934e-01        1.360487e-01
    -21.9          2.396873e-01        1.360025e-01
    -21.8          2.413811e-01        1.359564e-01
    -21.7          2.430750e-01        1.359102e-01
    -21.6          2.447689e-01        1.358641e-01
    -21.5          2.459848e-01        1.358179e-01
    -21.4          2.470090e-01        1.357718e-01
    -21.3          2.480333e-01        1.357276e-01
    -21.2          2.490576e-01        1.356835e-01
    -21.1          2.500819e-01        1.356394e-01
    -21.0          2.511062e-01        1.355953e-01
    -20.9          2.521305e-01        1.355512e-01
    -20.8          2.530073e-01        1.355072e-01
    -20.7          2.535328e-01        1.354631e-01
    -20.6          2.540583e-01        1.354151e-01
    -20.5          2.545838e-01        1.353635e-01
    -20.4          2.551092e-01        1.353119e-01
    -20.3          2.556347e-01        1.352603e-01
    -20.2          2.561602e-01        1.352087e-01
    -20.1          2.566857e-01        1.351571e-01
    -20.0          2.569588e-01        1.351055e-01
    -19.9          2.571967e-01        1.350537e-01
    -19.8          2.574345e-01        1.350012e-01
    -19.7          2.576724e-01        1.349488e-01
    -19.6          2.579103e-01        1.348964e-01
    -19.5          2.581481e-01        1.348439e-01
    -19.4          2.583860e-01        1.347915e-01
    -19.3          2.585826e-01        1.347391e-01
    -19.2          2.587306e-01        1.346866e-01
    -19.1          2.588786e-01        1.346287e-01
    -19.0          2.590266e-01        1.345700e-01
    -18.9          2.591746e-01        1.345113e-01
    -18.8          2.593226e-01        1.344526e-01
    -18.7          2.594706e-01        1.343939e-01
    -18.6          2.596219e-01        1.343352e-01
    -18.5          2.598508e-01        1.342765e-01
    -18.4          2.600797e-01        1.342119e-01
    -18.3          2.603085e-01        1.341406e-01
    -18.2          2.605374e-01        1.340694e-01
    -18.1          2.607663e-01        1.339981e-01
    -18.0          2.609951e-01        1.339269e-01
    -17.9          2.612240e-01        1.338556e-01
    -17.8          2.615619e-01        1.337844e-01
    -17.7          2.619660e-01        1.337121e-01
    -17.6          2.623702e-01        1.336220e-01
    -17.5          2.627743e-01        1.335319e-01
    -17.4          2.631784e-01        1.334418e-01
    -17.3          2.635826e-01        1.333518e-01
    -17.2          2.639867e-01        1.332617e-01
    -17.1          2.644238e-01        1.331716e-01
    -17.0          2.649897e-01        1.330815e-01
    -16.9          2.655555e-01        1.329753e-01
    -16.8          2.661214e-01        1.328602e-01
    -16.7          2.666873e-01        1.327450e-01
    -16.6          2.672532e-01        1.326298e-01
    -16.5          2.678191e-01        1.325147e-01
    -16.4          2.683849e-01        1.323995e-01
    -16.3          2.690390e-01        1.322843e-01
    -16.2          2.697172e-01        1.321605e-01
    -16.1          2.703954e-01        1.320077e-01
    -16.0          2.710736e-01        1.318549e-01
    -15.9          2.717518e-01        1.317021e-01
    -15.8          2.724300e-01        1.315493e-01
    -15.7          2.731082e-01        1.313965e-01
    -15.6          2.737979e-01        1.312437e-01
    -15.5          2.745076e-01        1.310909e-01
    -15.4          2.752173e-01        1.309022e-01
    -15.3          2.759269e-01        1.307055e-01
    -15.2          2.766366e-01        1.305088e-01
    -15.1          2.773462e-01        1.303120e-01
    -15.0          2.780559e-01        1.301153e-01
    -14.9          2.787655e-01        1.299186e-01
    -14.8          2.794197e-01        1.297219e-01
    -14.7          2.800710e-01        1.295006e-01
    -14.6          2.807222e-01        1.292432e-01
    -14.5          2.813734e-01        1.289859e-01
    -14.4          2.820246e-01        1.287285e-01
    -14.3          2.826758e-01        1.284712e-01
    -14.2          2.833270e-01        1.282138e-01
    -14.1          2.839139e-01        1.279565e-01
    -14.0          2.844438e-01        1.276991e-01
    -13.9          2.849737e-01        1.273650e-01
    -13.8          2.855036e-01        1.270303e-01
    -13.7          2.860335e-01        1.266955e-01
    -13.6          2.865634e-01        1.263608e-01
    -13.5          2.870933e-01        1.260261e-01
    -13.4          2.876076e-01        1.256914e-01
    -13.3          2.879982e-01        1.253566e-01
    -13.2          2.883887e-01        1.249577e-01
    -13.1          2.887793e-01        1.245121e-01
    -13.0          2.891699e-01        1.240666e-01
    -12.9          2.895605e-01        1.236210e-01
    -12.8          2.899511e-01        1.231755e-01
    -12.7          2.903417e-01        1.227300e-01
    -12.6          2.906513e-01        1.222844e-01
    -12.5          2.909250e-01        1.218060e-01
    -12.4          2.911988e-01        1.211639e-01
    -12.3          2.914725e-01        1.205218e-01
    -12.2          2.917463e-01        1.198797e-01
    -12.1          2.920200e-01        1.192376e-01
    -12.0          2.922938e-01        1.185955e-01
    -11.9          2.925416e-01        1.179534e-01
