                       g_value (photons/atom/s)
Velocity (km/s)      5891.58 A           5897.56 A
    -50.0          8.274946e+01        4.323132e+01
    -49.9          8.272736e+01        4.322164e+01
    -49.8          8.270601e+01        4.321192e+01
    -49.7          8.268497e+01        4.320177e+01
    -49.6          8.266393e+01        4.319161e+01
    -49.5          8.264289e+01        4.318145e+01
    -49.4          8.262185e+01        4.317129e+01
    -49.3          8.259845e+01        4.316109e+01
    -49.2          8.257267e+01        4.315054e+01
    -49.1          8.254690e+01        4.313998e+01
    -49.0          8.252112e+01        4.312943e+01
    -48.9          8.249534e+01        4.311888e+01
    -48.8          8.246651e+01        4.310832e+01
    -48.7          8.243495e+01        4.309729e+01
    -48.6          8.240339e+01        4.308621e+01
    -48.5          8.237182e+01        4.307513e+01
    -48.4          8.234026e+01        4.306405e+01
    -48.3          8.230821e+01        4.305297e+01
    -48.2          8.227507e+01        4.304320e+01
    -48.1          8.224193e+01        4.303353e+01
    -48.0          8.220879e+01        4.302385e+01
    -47.9          8.217565e+01        4.301417e+01
    -47.8          8.214424e+01        4.300450e+01
    -47.7          8.211619e+01        4.299447e+01
    -47.6          8.208813e+01        4.298431e+01
    -47.5          8.206008e+01        4.297415e+01
    -47.4          8.203203e+01        4.296399e+01
    -47.3          8.200290e+01        4.295383e+01
    -47.2          8.196608e+01        4.294297e+01
    -47.1          8.192927e+01        4.293190e+01
    -47.0          8.189245e+01        4.292082e+01
    -46.9          8.185564e+01        4.290974e+01
    -46.8          8.181770e+01        4.289867e+01
    -46.7          8.177352e+01        4.288661e+01
    -46.6          8.172935e+01        4.287430e+01
    -46.5          8.168517e+01        4.286199e+01
    -46.4          8.164100e+01        4.284967e+01
    -46.3          8.159753e+01        4.283736e+01
    -46.2          8.155720e+01        4.282523e+01
    -46.1          8.151688e+01        4.281323e+01
    -46.0          8.147655e+01        4.280123e+01
    -45.9          8.143623e+01        4.278923e+01
    -45.8          8.139591e+01        4.277723e+01
    -45.7          8.135186e+01        4.276504e+01
    -45.6          8.130769e+01        4.275273e+01
    -45.5          8.126351e+01        4.274042e+01
    -45.4          8.121933e+01        4.272811e+01
    -45.3          8.117516e+01        4.271580e+01
    -45.2          8.113483e+01        4.270399e+01
    -45.1          8.109451e+01        4.269292e+01
    -45.0          8.105420e+01        4.268184e+01
    -44.9          8.101388e+01        4.267077e+01
    -44.8          8.097357e+01        4.265969e+01
    -44.7          8.093311e+01        4.264846e+01
    -44.6          8.089261e+01        4.263703e+01
    -44.5          8.085211e+01        4.262559e+01
    -44.4          8.081162e+01        4.261416e+01
    -44.3          8.077112e+01        4.260273e+01
    -44.2          8.073076e+01        4.259117e+01
    -44.1          8.069044e+01        4.257917e+01
    -44.0          8.065012e+01        4.256716e+01
    -43.9          8.060980e+01        4.255516e+01
    -43.8          8.056948e+01        4.254316e+01
    -43.7          8.053015e+01        4.253014e+01
    -43.6          8.049149e+01        4.251432e+01
    -43.5          8.045284e+01        4.249850e+01
    -43.4          8.041419e+01        4.248268e+01
    -43.3          8.037553e+01        4.246686e+01
    -43.2          8.033802e+01        4.245100e+01
    -43.1          8.030120e+01        4.243440e+01
    -43.0          8.026438e+01        4.241779e+01
    -42.9          8.022755e+01        4.240119e+01
    -42.8          8.019073e+01        4.238458e+01
    -42.7          8.015243e+01        4.236805e+01
    -42.6          8.011194e+01        4.235223e+01
    -42.5          8.007145e+01        4.233641e+01
    -42.4          8.003096e+01        4.232059e+01
    -42.3          7.999047e+01        4.230477e+01
    -42.2          7.995082e+01        4.228895e+01
    -42.1          7.991225e+01        4.227083e+01
    -42.0          7.987368e+01        4.225238e+01
    -41.9          7.983511e+01        4.223394e+01
    -41.8          7.979654e+01        4.221550e+01
    -41.7          7.975676e+01        4.219705e+01
    -41.6          7.971258e+01        4.218100e+01
    -41.5          7.966841e+01        4.216518e+01
    -41.4          7.962423e+01        4.214936e+01
    -41.3          7.958006e+01        4.213354e+01
    -41.2          7.953337e+01        4.211772e+01
    -41.1          7.947903e+01        4.210329e+01
    -41.0          7.942470e+01        4.208944e+01
    -40.9          7.937036e+01        4.207560e+01
    -40.8          7.931603e+01        4.206176e+01
    -40.7          7.926150e+01        4.204792e+01
    -40.6          7.920077e+01        4.203456e+01
    -40.5          7.914004e+01        4.202138e+01
    -40.4          7.907931e+01        4.200820e+01
    -40.3          7.901858e+01        4.199501e+01
    -40.2          7.895813e+01        4.198183e+01
    -40.1          7.890203e+01        4.196686e+01
    -40.0          7.884594e+01        4.195025e+01
    -39.9          7.878984e+01        4.193364e+01
    -39.8          7.873375e+01        4.191704e+01
    -39.7          7.867765e+01        4.190043e+01
    -39.6          7.862230e+01        4.188426e+01
    -39.5          7.856710e+01        4.186844e+01
    -39.4          7.851189e+01        4.185262e+01
    -39.3          7.845668e+01        4.183680e+01
    -39.2          7.840147e+01        4.182098e+01
    -39.1          7.835314e+01        4.180521e+01
    -39.0          7.830581e+01        4.178953e+01
    -38.9          7.825848e+01        4.177384e+01
    -38.8          7.821115e+01        4.175816e+01
    -38.7          7.816381e+01        4.174247e+01
    -38.6          7.811252e+01        4.172774e+01
    -38.5          7.805916e+01        4.171456e+01
    -38.4          7.800579e+01        4.170137e+01
    -38.3          7.795242e+01        4.168819e+01
    -38.2          7.789905e+01        4.167500e+01
    -38.1          7.784622e+01        4.166139e+01
    -38.0          7.779363e+01        4.164571e+01
    -37.9          7.774105e+01        4.163003e+01
    -37.8          7.768847e+01        4.161435e+01
    -37.7          7.763588e+01        4.159867e+01
    -37.6          7.757863e+01        4.158242e+01
    -37.5          7.751606e+01        4.156397e+01
    -37.4          7.745349e+01        4.154552e+01
    -37.3          7.739092e+01        4.152707e+01
    -37.2          7.732835e+01        4.150862e+01
    -37.1          7.726815e+01        4.149017e+01
    -37.0          7.721030e+01        4.147172e+01
    -36.9          7.715246e+01        4.145327e+01
    -36.8          7.709462e+01        4.143482e+01
    -36.7          7.703678e+01        4.141638e+01
    -36.6          7.697658e+01        4.139793e+01
    -36.5          7.691032e+01        4.137948e+01
    -36.4          7.684407e+01        4.136104e+01
    -36.3          7.677781e+01        4.134259e+01
    -36.2          7.671156e+01        4.132414e+01
    -36.1          7.664411e+01        4.130570e+01
    -36.0          7.657400e+01        4.128349e+01
    -35.9          7.650390e+01        4.126044e+01
    -35.8          7.643380e+01        4.123738e+01
    -35.7          7.636370e+01        4.121433e+01
    -35.6          7.629292e+01        4.119127e+01
    -35.5          7.621563e+01        4.116542e+01
    -35.4          7.613834e+01        4.113908e+01
    -35.3          7.606105e+01        4.111273e+01
    -35.2          7.598376e+01        4.108639e+01
    -35.1          7.590649e+01        4.106005e+01
    -35.0          7.582938e+01        4.103287e+01
    -34.9          7.575227e+01        4.100521e+01
    -34.8          7.567516e+01        4.097756e+01
    -34.7          7.559804e+01        4.094990e+01
    -34.6          7.552093e+01        4.092224e+01
    -34.5          7.543699e+01        4.089458e+01
    -34.4          7.535235e+01        4.086692e+01
    -34.3          7.526771e+01        4.083926e+01
    -34.2          7.518308e+01        4.081160e+01
    -34.1          7.509844e+01        4.078394e+01
    -34.0          7.500689e+01        4.075597e+01
    -33.9          7.491488e+01        4.072787e+01
    -33.8          7.482286e+01        4.069978e+01
    -33.7          7.473085e+01        4.067168e+01
    -33.6          7.463884e+01        4.064358e+01
    -33.5          7.454091e+01        4.061249e+01
    -33.4          7.444277e+01        4.057839e+01
    -33.3          7.434464e+01        4.054428e+01
    -33.2          7.424651e+01        4.051017e+01
    -33.1          7.414838e+01        4.047607e+01
    -33.0          7.403690e+01        4.044236e+01
    -32.9          7.392098e+01        4.040900e+01
    -32.8          7.380506e+01        4.037564e+01
    -32.7          7.368914e+01        4.034228e+01
    -32.6          7.357322e+01        4.030892e+01
    -32.5          7.345067e+01        4.027532e+01
    -32.4          7.332626e+01        4.024122e+01
    -32.3          7.320184e+01        4.020711e+01
    -32.2          7.307743e+01        4.017301e+01
    -32.1          7.295301e+01        4.013891e+01
    -32.0          7.281681e+01        4.010600e+01
    -31.9          7.267146e+01        4.007527e+01
    -31.8          7.252610e+01        4.004454e+01
    -31.7          7.238075e+01        4.001381e+01
    -31.6          7.223540e+01        3.998308e+01
    -31.5          7.208687e+01        3.995186e+01
    -31.4          7.193616e+01        3.991775e+01
    -31.3          7.178546e+01        3.988365e+01
    -31.2          7.163476e+01        3.984954e+01
    -31.1          7.148406e+01        3.981544e+01
    -31.0          7.132845e+01        3.978099e+01
    -30.9          7.116470e+01        3.974500e+01
    -30.8          7.100095e+01        3.970901e+01
    -30.7          7.083720e+01        3.967302e+01
    -30.6          7.067344e+01        3.963703e+01
    -30.5          7.051144e+01        3.960104e+01
    -30.4          7.035199e+01        3.956153e+01
    -30.3          7.019253e+01        3.952190e+01
    -30.2          7.003308e+01        3.948227e+01
    -30.1          6.987363e+01        3.944264e+01
    -30.0          6.971301e+01        3.940300e+01
    -29.9          6.954742e+01        3.936262e+01
    -29.8          6.938182e+01        3.932225e+01
    -29.7          6.921623e+01        3.928187e+01
    -29.6          6.905064e+01        3.924149e+01
    -29.5          6.888908e+01        3.920111e+01
    -29.4          6.874189e+01        3.915259e+01
    -29.3          6.859470e+01        3.910190e+01
    -29.2          6.844752e+01        3.905121e+01
    -29.1          6.830033e+01        3.900053e+01
    -29.0          6.815316e+01        3.894984e+01
    -28.9          6.802069e+01        3.889390e+01
    -28.8          6.788822e+01        3.883686e+01
    -28.7          6.775574e+01        3.877982e+01
    -28.6          6.762327e+01        3.872278e+01
    -28.5          6.749179e+01        3.866574e+01
    -28.4          6.739015e+01        3.860920e+01
    -28.3          6.728852e+01        3.855299e+01
    -28.2          6.718688e+01        3.849678e+01
    -28.1          6.708525e+01        3.844057e+01
    -28.0          6.698361e+01        3.838436e+01
    -27.9          6.689132e+01        3.834014e+01
    -27.8          6.680115e+01        3.830239e+01
    -27.7          6.671099e+01        3.826465e+01
    -27.6          6.662082e+01        3.822690e+01
    -27.5          6.653066e+01        3.818916e+01
    -27.4          6.645893e+01        3.815179e+01
    -27.3          6.639058e+01        3.811493e+01
    -27.2          6.632224e+01        3.807806e+01
    -27.1          6.625389e+01        3.804120e+01
    -27.0          6.618554e+01        3.800433e+01
    -26.9          6.612197e+01        3.796581e+01
    -26.8          6.606124e+01        3.792543e+01
    -26.7          6.600051e+01        3.788505e+01
    -26.6          6.593978e+01        3.784467e+01
    -26.5          6.587905e+01        3.780429e+01
    -26.4          6.582253e+01        3.776291e+01
    -26.3          6.576820e+01        3.771868e+01
    -26.2          6.571387e+01        3.767444e+01
    -26.1          6.565954e+01        3.763021e+01
    -26.0          6.560521e+01        3.758598e+01
    -25.9          6.555049e+01        3.754211e+01
    -25.8          6.549529e+01        3.749910e+01
    -25.7          6.544008e+01        3.745609e+01
    -25.6          6.538488e+01        3.741309e+01
    -25.5          6.532968e+01        3.737008e+01
    -25.4          6.527653e+01        3.732674e+01
    -25.3          6.522570e+01        3.727975e+01
    -25.2          6.517487e+01        3.723275e+01
    -25.1          6.512405e+01        3.718575e+01
    -25.0          6.507322e+01        3.713876e+01
    -24.9          6.501942e+01        3.709192e+01
    -24.8          6.495686e+01        3.704628e+01
    -24.7          6.489429e+01        3.700064e+01
    -24.6          6.483173e+01        3.695501e+01
    -24.5          6.476916e+01        3.690937e+01
    -24.4          6.470297e+01        3.686373e+01
    -24.3          6.462761e+01        3.681936e+01
    -24.2          6.455225e+01        3.677512e+01
    -24.1          6.447689e+01        3.673089e+01
    -24.0          6.440153e+01        3.668665e+01
    -23.9          6.432520e+01        3.664241e+01
    -23.8          6.423505e+01        3.660347e+01
    -23.7          6.414489e+01        3.656485e+01
    -23.6          6.405473e+01        3.652623e+01
    -23.5          6.396457e+01        3.648762e+01
    -23.4          6.387398e+01        3.644900e+01
    -23.3          6.377936e+01        3.641099e+01
    -23.2          6.368473e+01        3.637320e+01
    -23.1          6.359010e+01        3.633541e+01
    -23.0          6.349547e+01        3.629763e+01
    -22.9          6.340084e+01        3.625984e+01
    -22.8          6.329237e+01        3.621940e+01
    -22.7          6.318198e+01        3.617815e+01
    -22.6          6.307159e+01        3.613690e+01
    -22.5          6.296120e+01        3.609566e+01
    -22.4          6.285081e+01        3.605441e+01
    -22.3          6.273404e+01        3.601049e+01
    -22.2          6.261664e+01        3.596441e+01
    -22.1          6.249924e+01        3.591833e+01
    -22.0          6.238185e+01        3.587225e+01
    -21.9          6.226445e+01        3.582617e+01
    -21.8          6.213154e+01        3.578064e+01
    -21.7          6.199171e+01        3.573549e+01
    -21.6          6.185188e+01        3.569034e+01
    -21.5          6.171205e+01        3.564519e+01
    -21.4          6.157222e+01        3.560004e+01
    -21.3          6.142309e+01        3.555459e+01
    -21.2          6.127038e+01        3.550895e+01
    -21.1          6.111767e+01        3.546332e+01
    -21.0          6.096497e+01        3.541769e+01
    -20.9          6.081226e+01        3.537205e+01
    -20.8          6.065712e+01        3.532320e+01
    -20.7          6.050117e+01        3.526975e+01
    -20.6          6.034523e+01        3.521631e+01
    -20.5          6.018928e+01        3.516286e+01
    -20.4          6.003333e+01        3.510941e+01
    -20.3          5.986732e+01        3.505514e+01
    -20.2          5.969255e+01        3.499986e+01
    -20.1          5.951777e+01        3.494457e+01
    -20.0          5.934300e+01        3.488929e+01
    -19.9          5.916822e+01        3.483401e+01
    -19.8          5.899319e+01        3.477678e+01
    -19.7          5.881797e+01        3.471320e+01
    -19.6          5.864275e+01        3.464963e+01
    -19.5          5.846752e+01        3.458606e+01
    -19.4          5.829230e+01        3.452248e+01
    -19.3          5.811212e+01        3.445831e+01
    -19.2          5.792262e+01        3.439250e+01
    -19.1          5.773313e+01        3.432669e+01
    -19.0          5.754363e+01        3.426088e+01
    -18.9          5.735414e+01        3.419506e+01
    -18.8          5.716872e+01        3.412874e+01
    -18.7          5.699000e+01        3.405412e+01
    -18.6          5.681128e+01        3.397949e+01
    -18.5          5.663256e+01        3.390486e+01
    -18.4          5.645384e+01        3.383024e+01
    -18.3          5.627339e+01        3.375562e+01
    -18.2          5.608389e+01        3.368104e+01
    -18.1          5.589439e+01        3.360646e+01
    -18.0          5.570489e+01        3.353188e+01
    -17.9          5.551539e+01        3.345730e+01
    -17.8          5.532628e+01        3.338272e+01
    -17.7          5.513880e+01        3.330080e+01
    -17.6          5.495132e+01        3.321788e+01
    -17.5          5.476384e+01        3.313497e+01
    -17.4          5.457636e+01        3.305205e+01
    -17.3          5.438888e+01        3.296914e+01
    -17.2          5.418870e+01        3.288582e+01
    -17.1          5.398818e+01        3.280246e+01
    -17.0          5.378766e+01        3.271911e+01
    -16.9          5.358713e+01        3.263576e+01
    -16.8          5.338665e+01        3.255240e+01
    -16.7          5.319742e+01        3.246158e+01
    -16.6          5.300818e+01        3.236761e+01
    -16.5          5.281895e+01        3.227365e+01
    -16.4          5.262971e+01        3.217968e+01
    -16.3          5.244047e+01        3.208572e+01
    -16.2          5.224525e+01        3.199311e+01
    -16.1          5.204839e+01        3.190099e+01
    -16.0          5.185154e+01        3.180886e+01
    -15.9          5.165468e+01        3.171674e+01
    -15.8          5.145783e+01        3.162461e+01
    -15.7          5.126291e+01        3.152618e+01
    -15.6          5.106843e+01        3.142208e+01
    -15.5          5.087395e+01        3.131799e+01
    -15.4          5.067946e+01        3.121389e+01
    -15.3          5.048498e+01        3.110980e+01
    -15.2          5.028578e+01        3.100701e+01
    -15.1          5.008341e+01        3.090524e+01
    -15.0          4.988105e+01        3.080347e+01
    -14.9          4.967868e+01        3.070170e+01
    -14.8          4.947631e+01        3.059994e+01
    -14.7          4.927560e+01        3.049380e+01
    -14.6          4.907586e+01        3.037957e+01
    -14.5          4.887611e+01        3.026534e+01
    -14.4          4.867637e+01        3.015111e+01
    -14.3          4.847663e+01        3.003688e+01
    -14.2          4.826823e+01        2.992306e+01
    -14.1          4.804746e+01        2.980989e+01
    -14.0          4.782670e+01        2.969672e+01
    -13.9          4.760594e+01        2.958354e+01
    -13.8          4.738517e+01        2.947037e+01
    -13.7          4.716983e+01        2.935526e+01
    -13.6          4.696133e+01        2.923090e+01
    -13.5          4.675283e+01        2.910655e+01
    -13.4          4.654433e+01        2.898219e+01
    -13.3          4.633584e+01        2.885783e+01
    -13.2          4.612334e+01        2.873417e+01
    -13.1          4.589706e+01        2.861310e+01
    -13.0          4.567078e+01        2.849203e+01
    -12.9          4.544450e+01        2.837097e+01
    -12.8          4.521821e+01        2.824990e+01
    -12.7          4.499245e+01        2.812884e+01
    -12.6          4.476818e+01        2.799531e+01
    -12.5          4.454391e+01        2.786175e+01
    -12.4          4.431964e+01        2.772819e+01
    -12.3          4.409537e+01        2.759462e+01
    -12.2          4.387027e+01        2.746107e+01
    -12.1          4.362376e+01        2.732772e+01
    -12.0          4.337725e+01        2.719438e+01
    -11.9          4.313073e+01        2.706103e+01
